SpectraSuite数据文件
++++++++++++++++++++++++++++++++++++
数据: Sun Apr 26 15:39:41 CST 2026
用户: Administrator
暗光谱: 是
参考光谱: 否
光谱数量: 1
光谱仪: USB2+H12950
积分时间（微秒）: 100000 (USB2+H12950)
平均次数: 1 (USB2+H12950)
平滑度: 0 (USB2+H12950)
去除暗噪声: 否 (USB2+H12950)
使用脉冲信号/灯: 否 (USB2+H12950)
电子暗噪声校正: 否 (USB2+H12950)
杂散光校正: 否 (USB2+H12950)
光谱像素值: 2048
>>>>>Begin Processed Spectral Data<<<<<
190.29	17.64
190.67	17.64
191.05	17.64
191.44	-15.12
191.82	-57.97
192.20	-15.12
192.58	105.86
192.96	-37.81
193.35	27.73
193.73	-12.60
194.11	68.06
194.49	-17.64
194.87	-27.73
195.25	68.06
195.64	-2.52
196.02	32.77
196.40	-7.56
196.78	88.22
197.16	-25.21
197.55	50.41
197.93	7.56
198.31	75.62
198.69	-32.77
199.07	10.08
199.45	-73.10
199.83	45.37
200.22	10.08
200.60	105.86
200.98	0.00
201.36	5.04
201.74	-98.30
202.12	75.62
202.50	2.52
202.88	-12.60
203.27	-60.49
203.65	25.21
204.03	47.89
204.41	27.73
204.79	-17.64
205.17	-52.93
205.55	-55.45
205.93	37.81
206.31	45.37
206.70	25.21
207.08	-35.29
207.46	-83.18
207.84	-50.41
208.22	50.41
208.60	-20.16
208.98	-40.33
209.36	52.93
209.74	-63.01
210.12	63.01
210.50	-83.18
210.88	83.18
211.26	120.99
211.64	50.41
212.02	-30.25
212.40	-2.52
212.78	50.41
213.16	113.43
213.55	-35.29
213.93	-2.52
214.31	7.56
214.69	42.85
215.07	12.60
215.45	88.22
215.83	10.08
216.21	126.03
216.59	7.56
216.97	-42.85
217.35	-2.52
217.73	-42.85
218.11	78.14
218.49	-105.86
218.87	-7.56
219.25	63.01
219.63	22.69
220.01	-50.41
220.38	-73.10
220.76	-63.01
221.14	-40.33
221.52	35.29
221.90	-25.21
222.28	-60.49
222.66	-73.10
223.04	30.25
223.42	-22.69
223.80	-15.12
224.18	-50.41
224.56	-68.06
224.94	216.77
225.32	15.12
225.70	-141.15
226.08	-108.38
226.46	-68.06
226.83	-50.41
227.21	-30.25
227.59	-10.08
227.97	-35.29
228.35	17.64
228.73	22.69
229.11	-60.49
229.49	15.12
229.87	85.70
230.25	32.77
230.62	-30.25
231.00	-35.29
231.38	17.64
231.76	22.69
232.14	-7.56
232.52	98.30
232.90	-75.62
233.28	-22.69
233.65	5.04
234.03	-123.51
234.41	-32.77
234.79	90.74
235.17	15.12
235.55	-5.04
235.92	-25.21
236.30	-123.51
236.68	-50.41
237.06	-15.12
237.44	-27.73
237.82	63.01
238.19	120.99
238.57	27.73
238.95	-2.52
239.33	-75.62
239.71	73.10
240.08	0.00
240.46	42.85
240.84	-83.18
241.22	75.62
241.60	45.37
241.97	68.06
242.35	-85.70
242.73	-25.21
243.11	-50.41
243.48	-75.62
243.86	93.26
244.24	7.56
244.62	-10.08
244.99	30.25
245.37	2.52
245.75	-12.60
246.13	-98.30
246.50	-27.73
246.88	-47.89
247.26	10.08
247.64	-57.97
248.01	-93.26
248.39	7.56
248.77	-45.37
249.15	35.29
249.52	57.97
249.90	88.22
250.28	70.58
250.65	42.85
251.03	75.62
251.41	37.81
251.79	25.21
252.16	0.00
252.54	-63.01
252.92	-52.93
253.29	-50.41
253.67	-100.82
254.05	50.41
254.42	-42.85
254.80	-20.16
255.18	-47.89
255.55	40.33
255.93	7.56
256.31	115.95
256.68	-37.81
257.06	95.78
257.44	20.16
257.81	-15.12
258.19	55.45
258.56	-105.86
258.94	-80.66
259.32	63.01
259.69	5.04
260.07	42.85
260.45	32.77
260.82	131.07
261.20	17.64
261.57	12.60
261.95	136.11
262.33	15.12
262.70	-15.12
263.08	32.77
263.45	12.60
263.83	12.60
264.21	63.01
264.58	17.64
264.96	85.70
265.33	-75.62
265.71	-22.69
266.08	-15.12
266.46	22.69
266.84	27.73
267.21	-35.29
267.59	83.18
267.96	7.56
268.34	17.64
268.71	25.21
269.09	68.06
269.46	32.77
269.84	-55.45
270.21	-40.33
270.59	17.64
270.97	-27.73
271.34	12.60
271.72	-25.21
272.09	103.34
272.47	75.62
272.84	85.70
273.22	12.60
273.59	-57.97
273.97	-35.29
274.34	-55.45
274.72	70.58
275.09	-7.56
275.47	17.64
275.84	0.00
276.21	-60.49
276.59	-25.21
276.96	-73.10
277.34	47.89
277.71	-65.54
278.09	-10.08
278.46	-22.69
278.84	-85.70
279.21	-40.33
279.59	32.77
279.96	-80.66
280.33	-75.62
280.71	-32.77
281.08	52.93
281.46	45.37
281.83	7.56
282.21	37.81
282.58	-63.01
282.95	25.21
283.33	-40.33
283.70	-20.16
284.08	78.14
284.45	52.93
284.82	2.52
285.20	-52.93
285.57	70.58
285.95	-10.08
286.32	40.33
286.69	12.60
287.07	73.10
287.44	-25.21
287.82	-27.73
288.19	-47.89
288.56	10.08
288.94	-45.37
289.31	103.34
289.68	-12.60
290.06	42.85
290.43	-113.43
290.80	-42.85
291.18	-35.29
291.55	141.15
291.92	-75.62
292.30	-5.04
292.67	105.86
293.04	-47.89
293.42	7.56
293.79	-10.08
294.16	2.52
294.54	35.29
294.91	52.93
295.28	-55.45
295.65	-5.04
296.03	45.37
296.40	2.52
296.77	-20.16
297.15	10.08
297.52	63.01
297.89	-30.25
298.26	27.73
298.64	-68.06
299.01	73.10
299.38	0.00
299.76	63.01
300.13	-20.16
300.50	0.00
300.87	27.73
301.25	-5.04
301.62	85.70
301.99	-7.56
302.36	7.56
302.73	-123.51
303.11	73.10
303.48	27.73
303.85	-25.21
304.22	110.91
304.60	-10.08
304.97	5.04
305.34	-22.69
305.71	-37.81
306.08	22.69
306.46	30.25
306.83	-20.16
307.20	0.00
307.57	50.41
307.94	0.00
308.31	-2.52
308.69	45.37
309.06	-25.21
309.43	113.43
309.80	98.30
310.17	-10.08
310.54	50.41
310.92	-85.70
311.29	-17.64
311.66	-20.16
312.03	40.33
312.40	52.93
312.77	95.78
313.14	-50.41
313.52	-55.45
313.89	10.08
314.26	-25.21
314.63	25.21
315.00	50.41
315.37	12.60
315.74	120.99
316.11	-5.04
316.49	12.60
316.86	-25.21
317.23	17.64
317.60	15.12
317.97	-131.07
318.34	-5.04
318.71	-35.29
319.08	83.18
319.45	5.04
319.82	40.33
320.19	-2.52
320.56	10.08
320.93	-10.08
321.31	-15.12
321.68	-70.58
322.05	151.23
322.42	-7.56
322.79	17.64
323.16	63.01
323.53	37.81
323.90	42.85
324.27	50.41
324.64	-10.08
325.01	-45.37
325.38	-40.33
325.75	-15.12
326.12	83.18
326.49	85.70
326.86	-55.45
327.23	100.82
327.60	30.25
327.97	166.36
328.34	25.21
328.71	20.16
329.08	-35.29
329.45	-7.56
329.82	30.25
330.19	78.14
330.56	-63.01
330.93	22.69
331.30	-22.69
331.67	57.97
332.04	-35.29
332.41	17.64
332.77	-15.12
333.14	55.45
333.51	27.73
333.88	-30.25
334.25	40.33
334.62	-7.56
334.99	-40.33
335.36	32.77
335.73	-7.56
336.10	120.99
336.47	-50.41
336.84	52.93
337.21	42.85
337.57	-37.81
337.94	-32.77
338.31	47.89
338.68	-50.41
339.05	55.45
339.42	98.30
339.79	57.97
340.16	12.60
340.52	12.60
340.89	7.56
341.26	12.60
341.63	75.62
342.00	57.97
342.37	-20.16
342.74	20.16
343.10	-47.89
343.47	-12.60
343.84	-35.29
344.21	-22.69
344.58	57.97
344.95	78.14
345.31	98.30
345.68	-55.45
346.05	93.26
346.42	47.89
346.79	-52.93
347.16	-25.21
347.52	-12.60
347.89	68.06
348.26	-47.89
348.63	-63.01
348.99	73.10
349.36	-50.41
349.73	-5.04
350.10	12.60
350.47	-113.43
350.83	32.77
351.20	-7.56
351.57	-25.21
351.94	126.03
352.30	27.73
352.67	-52.93
353.04	73.10
353.41	37.81
353.77	63.01
354.14	-42.85
354.51	57.97
354.88	-17.64
355.24	108.38
355.61	57.97
355.98	-52.93
356.34	2.52
356.71	63.01
357.08	-50.41
357.45	57.97
357.81	63.01
358.18	-47.89
358.55	-45.37
358.91	-27.73
359.28	-105.86
359.65	25.21
360.01	15.12
360.38	-75.62
360.75	105.86
361.11	-78.14
361.48	27.73
361.85	-12.60
362.21	-22.69
362.58	-32.77
362.95	-12.60
363.31	-7.56
363.68	-55.45
364.05	50.41
364.41	15.12
364.78	90.74
365.15	-12.60
365.51	68.06
365.88	-20.16
366.24	68.06
366.61	-25.21
366.98	7.56
367.34	12.60
367.71	-68.06
368.07	15.12
368.44	100.82
368.81	115.95
369.17	-30.25
369.54	-7.56
369.90	-32.77
370.27	15.12
370.63	35.29
371.00	50.41
371.37	20.16
371.73	88.22
372.10	-5.04
372.46	-50.41
372.83	7.56
373.19	88.22
373.56	-17.64
373.92	-75.62
374.29	27.73
374.66	83.18
375.02	68.06
375.39	30.25
375.75	32.77
376.12	12.60
376.48	88.22
376.85	-7.56
377.21	25.21
377.58	-25.21
377.94	15.12
378.31	-55.45
378.67	-22.69
379.04	78.14
379.40	-78.14
379.77	45.37
380.13	-45.37
380.50	-12.60
380.86	-42.85
381.22	-68.06
381.59	30.25
381.95	40.33
382.32	-12.60
382.68	75.62
383.05	22.69
383.41	113.43
383.78	30.25
384.14	-120.99
384.50	7.56
384.87	40.33
385.23	-12.60
385.60	-42.85
385.96	-110.91
386.33	-75.62
386.69	12.60
387.05	-12.60
387.42	-32.77
387.78	0.00
388.15	47.89
388.51	-2.52
388.87	-52.93
389.24	-2.52
389.60	95.78
389.97	103.34
390.33	-47.89
390.69	68.06
391.06	-55.45
391.42	5.04
391.78	65.54
392.15	-35.29
392.51	-40.33
392.87	-5.04
393.24	-65.54
393.60	-50.41
393.96	47.89
394.33	-5.04
394.69	35.29
395.05	-40.33
395.42	-17.64
395.78	-12.60
396.14	22.69
396.51	2.52
396.87	-15.12
397.23	-65.53
397.60	-73.10
397.96	63.01
398.32	-17.64
398.68	45.37
399.05	68.06
399.41	42.85
399.77	-2.52
400.14	2.52
400.50	-35.29
400.86	45.37
401.22	-88.22
401.59	57.97
401.95	-15.12
402.31	63.01
402.67	7.56
403.04	-20.16
403.40	-75.62
403.76	37.81
404.12	-12.60
404.48	-17.64
404.85	-7.56
405.21	10.08
405.57	25.21
405.93	-50.41
406.30	55.45
406.66	-5.04
407.02	-88.22
407.38	40.33
407.74	30.25
408.11	60.49
408.47	80.66
408.83	-123.51
409.19	-158.80
409.55	27.73
409.91	32.77
410.28	-115.95
410.64	-90.74
411.00	85.70
411.36	68.06
411.72	-83.18
412.08	35.29
412.45	80.66
412.81	-32.77
413.17	-17.64
413.53	-57.97
413.89	-88.22
414.25	25.21
414.61	-12.60
414.97	60.49
415.34	10.08
415.70	-35.29
416.06	-20.16
416.42	-80.66
416.78	-22.69
417.14	-70.58
417.50	126.03
417.86	5.04
418.22	7.56
418.58	-93.26
418.94	7.56
419.31	-131.07
419.67	-7.56
420.03	-32.77
420.39	5.04
420.75	5.04
421.11	-70.58
421.47	20.16
421.83	65.54
422.19	-63.01
422.55	65.53
422.91	22.69
423.27	5.04
423.63	7.56
423.99	-32.77
424.35	-90.74
424.71	-10.08
425.07	-2.52
425.43	35.29
425.79	-22.69
426.15	108.38
426.51	20.16
426.87	12.60
427.23	22.69
427.59	-52.93
427.95	-57.97
428.31	141.15
428.67	47.89
429.03	-78.14
429.39	-45.37
429.75	-88.22
430.11	42.85
430.47	5.04
430.83	45.37
431.19	-78.14
431.55	-7.56
431.91	-42.85
432.27	7.56
432.62	22.69
432.98	88.22
433.34	5.04
433.70	70.58
434.06	12.60
434.42	-55.45
434.78	12.60
435.14	42.85
435.50	7.56
435.86	-73.10
436.22	22.69
436.57	-17.64
436.93	98.30
437.29	60.49
437.65	27.73
438.01	57.97
438.37	25.21
438.73	-93.26
439.09	-27.73
439.44	65.54
439.80	-55.45
440.16	65.54
440.52	-50.41
440.88	126.03
441.24	78.14
441.59	-50.41
441.95	-17.64
442.31	42.85
442.67	100.82
443.03	-12.60
443.39	25.21
443.74	-25.21
444.10	-20.16
444.46	63.01
444.82	42.85
445.18	138.63
445.53	-40.33
445.89	-65.53
446.25	2.52
446.61	45.37
446.96	-20.16
447.32	-40.33
447.68	7.56
448.04	42.85
448.40	-2.52
448.75	27.73
449.11	-85.70
449.47	47.89
449.83	133.59
450.18	35.29
450.54	2.52
450.90	5.04
451.25	115.95
451.61	-42.85
451.97	20.16
452.33	-45.37
452.68	65.53
453.04	40.33
453.40	-20.16
453.75	30.25
454.11	-85.70
454.47	47.89
454.83	-78.14
455.18	-42.85
455.54	30.25
455.90	-40.33
456.25	0.00
456.61	5.04
456.97	25.21
457.32	-27.73
457.68	20.16
458.04	32.77
458.39	-126.03
458.75	-73.10
459.11	194.08
459.46	37.81
459.82	-57.97
460.17	-55.45
460.53	-30.25
460.89	47.89
461.24	-30.25
461.60	27.73
461.96	-10.08
462.31	-75.62
462.67	37.81
463.02	47.89
463.38	168.88
463.74	-2.52
464.09	-70.58
464.45	90.74
464.80	27.73
465.16	-83.18
465.51	-95.78
465.87	-73.10
466.23	-65.53
466.58	-35.29
466.94	32.77
467.29	-50.41
467.65	60.49
468.00	-32.77
468.36	27.73
468.71	73.10
469.07	-70.58
469.42	73.10
469.78	-10.08
470.13	-88.22
470.49	-37.81
470.85	-52.93
471.20	-37.81
471.56	-105.86
471.91	78.14
472.27	2.52
472.62	-25.21
472.98	75.62
473.33	12.60
473.68	-22.69
474.04	-5.04
474.39	-78.14
474.75	-37.81
475.10	50.41
475.46	-55.45
475.81	-12.60
476.17	103.34
476.52	-63.01
476.88	-25.21
477.23	98.30
477.59	40.33
477.94	-45.37
478.29	-20.16
478.65	2.52
479.00	55.45
479.36	42.85
479.71	-25.21
480.06	-35.29
480.42	133.59
480.77	85.70
481.13	-10.08
481.48	-68.06
481.83	-57.97
482.19	-98.30
482.54	55.45
482.90	2.52
483.25	118.47
483.60	0.00
483.96	90.74
484.31	5.04
484.66	-47.89
485.02	-40.33
485.37	42.85
485.72	42.85
486.08	-50.41
486.43	-10.08
486.79	-27.73
487.14	32.77
487.49	-88.22
487.84	42.85
488.20	-25.21
488.55	27.73
488.90	0.00
489.26	-5.04
489.61	93.26
489.96	85.70
490.32	-75.62
490.67	-45.37
491.02	-90.74
491.37	-12.60
491.73	-2.52
492.08	-93.26
492.43	25.21
492.79	47.89
493.14	65.53
493.49	-20.16
493.84	-20.16
494.20	2.52
494.55	-55.45
494.90	5.04
495.25	25.21
495.61	-45.37
495.96	5.04
496.31	-108.38
496.66	5.04
497.01	-32.77
497.37	-57.97
497.72	60.49
498.07	60.49
498.42	52.93
498.77	2.52
499.13	-118.47
499.48	-47.89
499.83	73.10
500.18	47.89
500.53	115.95
500.89	-47.89
501.24	27.73
501.59	100.82
501.94	83.18
502.29	27.73
502.64	-52.93
503.00	-115.95
503.35	-45.37
503.70	-12.60
504.05	-37.81
504.40	50.41
504.75	47.89
505.10	22.69
505.45	-75.62
505.81	-10.08
506.16	10.08
506.51	22.69
506.86	-7.56
507.21	60.49
507.56	40.33
507.91	35.29
508.26	113.43
508.61	45.37
508.96	-22.69
509.32	-25.21
509.67	120.99
510.02	2.52
510.37	75.62
510.72	138.63
511.07	-12.60
511.42	-15.12
511.77	22.69
512.12	-25.21
512.47	-60.49
512.82	42.85
513.17	15.12
513.52	12.60
513.87	-15.12
514.22	-5.04
514.57	103.34
514.92	-27.73
515.27	105.86
515.62	181.48
515.97	-7.56
516.32	27.73
516.67	45.37
517.02	-12.60
517.37	108.38
517.72	143.67
518.07	37.81
518.42	-5.04
518.77	2.52
519.12	-2.52
519.47	32.77
519.82	-70.58
520.17	12.60
520.52	-7.56
520.87	22.69
521.22	52.93
521.57	50.41
521.92	-10.08
522.27	-60.49
522.61	68.06
522.96	-57.97
523.31	-70.58
523.66	-45.37
524.01	35.29
524.36	63.01
524.71	-42.85
525.06	-35.29
525.41	85.70
525.76	-63.01
526.10	2.52
526.45	-32.77
526.80	-42.85
527.15	-128.55
527.50	115.95
527.85	15.12
528.20	10.08
528.54	12.60
528.89	40.33
529.24	70.58
529.59	45.37
529.94	-65.54
530.29	12.60
530.64	110.91
530.98	47.89
531.33	27.73
531.68	-110.91
532.03	-45.37
532.38	5.04
532.72	-10.08
533.07	100.82
533.42	60.49
533.77	20.16
534.12	10.08
534.46	-45.37
534.81	-10.08
535.16	70.58
535.51	-68.06
535.85	73.10
536.20	85.70
536.55	-5.04
536.90	45.37
537.24	93.26
537.59	-80.66
537.94	32.77
538.29	17.64
538.63	-100.82
538.98	-47.89
539.33	-52.93
539.68	-5.04
540.02	83.18
540.37	45.37
540.72	83.18
541.06	-35.29
541.41	-2.52
541.76	-15.12
542.10	27.73
542.45	10.08
542.80	68.06
543.15	2.52
543.49	158.80
543.84	105.86
544.19	-32.77
544.53	50.41
544.88	83.18
545.23	-22.69
545.57	-25.21
545.92	-5.04
546.26	-32.77
546.61	20.16
546.96	100.82
547.30	60.49
547.65	12.60
548.00	12.60
548.34	95.78
548.69	-50.41
549.03	65.54
549.38	120.99
549.73	-68.06
550.07	25.21
550.42	47.89
550.76	90.74
551.11	20.16
551.46	181.48
551.80	100.82
552.15	-60.49
552.49	85.70
552.84	-10.08
553.18	126.03
553.53	-50.41
553.88	30.25
554.22	37.81
554.57	-12.60
554.91	57.97
555.26	37.81
555.60	17.64
555.95	98.30
556.29	-22.69
556.64	40.33
556.98	40.33
557.33	78.14
557.67	20.16
558.02	52.93
558.36	15.12
558.71	108.38
559.05	40.33
559.40	194.08
559.74	65.54
560.09	-40.33
560.43	40.33
560.78	98.30
561.12	45.37
561.47	7.56
561.81	52.93
562.15	30.25
562.50	-10.08
562.84	40.33
563.19	68.06
563.53	15.12
563.88	113.43
564.22	186.52
564.56	244.50
564.91	221.81
565.25	68.06
565.60	83.18
565.94	57.97
566.28	50.41
566.63	110.91
566.97	20.16
567.32	110.91
567.66	113.43
568.00	136.11
568.35	83.18
568.69	199.13
569.04	32.77
569.38	178.96
569.72	120.99
570.07	143.67
570.41	83.18
570.75	168.88
571.10	35.29
571.44	100.82
571.78	123.51
572.13	216.77
572.47	171.40
572.81	110.91
573.16	234.41
573.50	287.35
573.84	60.49
574.18	184.00
574.53	216.77
574.87	133.59
575.21	279.78
575.56	201.65
575.90	254.58
576.24	103.34
576.58	196.61
576.93	259.62
577.27	272.22
577.61	252.06
577.96	234.41
578.30	189.04
578.64	357.92
578.98	325.15
579.32	279.78
579.67	368.00
580.01	362.96
580.35	400.77
580.69	330.20
581.04	345.32
581.38	531.84
581.72	456.22
582.06	425.98
582.40	476.39
582.75	441.10
583.09	471.35
583.43	567.13
583.77	494.03
584.11	509.16
584.46	536.88
584.80	519.24
585.14	685.60
585.48	652.83
585.82	743.57
586.16	811.63
586.50	645.27
586.85	695.68
587.19	607.46
587.53	788.94
587.87	889.76
588.21	874.64
588.55	746.09
588.89	927.57
589.23	942.70
589.58	957.82
589.92	972.94
590.26	1056.12
590.60	1033.44
590.94	1058.64
591.28	1073.77
591.62	1013.27
591.96	1212.40
592.30	1323.30
592.64	1303.14
592.98	1275.41
593.33	1441.77
593.67	1335.91
594.01	1421.61
594.35	1431.69
594.69	1610.65
595.03	1560.24
595.37	1734.16
595.71	1683.75
596.05	1822.38
596.39	1840.02
596.73	1897.99
597.07	1968.57
597.41	1961.01
597.75	1991.26
598.09	2255.92
598.43	2281.12
598.77	2371.86
599.11	2583.59
599.45	2626.44
599.79	2704.58
600.13	2767.59
600.47	2865.90
600.81	2893.62
601.15	3168.37
601.49	3312.04
601.83	3455.71
602.17	3596.86
602.51	3821.19
602.84	3765.74
603.18	4050.57
603.52	4237.09
603.86	4463.94
604.20	4496.71
604.54	4731.12
604.88	4894.96
605.22	5041.15
605.56	5323.46
605.90	5653.65
606.24	5802.37
606.58	6220.78
606.91	6379.58
607.25	6452.68
607.59	6873.61
607.93	7102.99
608.27	7410.50
608.61	8133.90
608.95	8209.52
609.29	8456.54
609.62	8786.73
609.96	9517.70
610.30	9825.21
610.64	10374.69
610.98	10785.55
611.32	11012.40
611.65	11619.86
611.99	12207.15
612.33	12761.68
612.67	13079.27
613.01	13870.73
613.34	14304.27
613.68	14795.79
614.02	15839.31
614.36	16287.97
614.70	16754.27
615.03	17828.04
615.37	18344.76
615.71	19209.32
616.05	19945.33
616.39	20691.42
616.72	21392.14
617.06	22105.46
617.40	22798.62
617.74	23753.92
618.07	24610.91
618.41	25581.34
618.75	26400.52
619.09	27242.40
619.42	27910.35
619.76	28976.55
620.10	29977.22
620.43	30806.49
620.77	31441.68
621.11	32220.53
621.45	32959.06
621.78	33906.80
622.12	35567.86
622.46	35540.13
622.79	36152.63
623.13	37264.21
623.47	38242.19
623.80	38549.70
624.14	39235.30
624.48	40097.34
624.81	40384.68
625.15	40692.19
625.49	41493.74
625.82	42499.45
626.16	42922.90
626.50	43840.39
626.83	43681.60
627.17	44218.48
627.50	44576.40
627.84	44800.73
628.18	45100.68
628.51	44450.37
628.85	45095.64
629.18	45055.31
629.52	45176.30
629.86	45763.59
630.19	44964.57
630.53	44808.30
630.86	44997.34
631.20	43956.34
631.54	44523.47
631.87	44190.75
632.21	43411.90
632.54	43129.59
632.88	43036.33
633.21	41889.47
633.55	41143.38
633.88	41173.62
634.22	40235.97
634.55	39540.29
634.89	38733.71
635.22	38572.39
635.56	37554.08
635.90	36755.05
636.23	35920.74
636.57	34786.48
636.90	33821.10
637.24	32739.77
637.57	32323.88
637.90	30950.16
638.24	30466.21
638.57	29359.68
638.91	28197.69
639.24	27713.74
639.58	26574.44
639.91	25677.12
640.25	24936.07
640.58	23869.86
640.92	23310.30
641.25	22231.49
641.59	21117.39
641.92	20905.66
642.25	19484.06
642.59	19035.40
642.92	18191.00
643.26	17548.26
643.59	16640.85
643.92	16222.43
644.26	15612.45
644.59	14818.47
644.93	14397.54
645.26	13734.62
645.59	13170.01
645.93	12539.87
646.26	12025.67
646.60	11584.57
646.93	11100.62
647.26	10717.49
647.60	10210.86
647.93	9623.56
648.26	9333.70
648.60	8927.88
648.93	8547.28
649.26	8222.12
649.60	7841.51
649.93	7632.31
650.26	7344.96
650.60	6825.72
650.93	6699.69
651.26	6399.74
651.60	6024.18
651.93	6021.66
652.26	5903.19
652.59	5446.97
652.93	5094.09
653.26	5015.95
653.59	4796.66
653.93	4710.96
654.26	4348.00
654.59	4201.80
654.92	3947.22
655.26	3773.30
655.59	3788.43
655.92	3438.07
656.25	3354.89
656.59	3337.24
656.92	2979.32
657.25	3012.09
657.58	3042.34
657.91	2828.09
658.25	2513.02
658.58	2339.10
658.91	2356.74
659.24	2429.84
659.57	2281.12
659.91	2092.08
660.24	2104.68
660.57	2006.38
660.90	1840.02
661.23	1819.86
661.57	1625.77
661.90	1676.18
662.23	1550.15
662.56	1502.26
662.89	1318.26
663.22	1368.67
663.55	1320.78
663.89	1240.12
664.22	1179.63
664.55	1212.40
664.88	1030.92
665.21	1081.33
665.54	962.86
665.87	980.50
666.20	1008.23
666.54	894.80
666.87	791.46
667.20	899.85
667.53	793.98
667.86	710.80
668.19	655.35
668.52	713.32
668.85	625.10
669.18	708.28
669.51	620.06
669.84	657.87
670.17	531.84
670.50	594.86
670.83	620.06
671.16	448.66
671.50	458.75
671.83	420.94
672.16	428.50
672.49	428.50
672.82	451.18
673.15	423.46
673.48	264.66
673.81	315.07
674.14	327.67
674.47	262.14
674.80	425.98
675.13	304.99
675.46	370.52
675.79	181.48
676.11	272.22
676.44	204.17
676.77	289.87
677.10	209.21
677.43	254.58
677.76	254.58
678.09	189.04
678.42	231.89
678.75	322.63
679.08	244.50
679.41	163.84
679.74	279.78
680.07	186.52
680.40	118.47
680.73	153.76
681.05	120.99
681.38	166.36
681.71	219.29
682.04	171.40
682.37	141.15
682.70	161.32
683.03	196.61
683.36	231.89
683.69	239.45
684.01	214.25
684.34	131.07
684.67	158.80
685.00	37.81
685.33	85.70
685.66	153.76
685.98	88.22
686.31	231.89
686.64	12.60
686.97	70.58
687.30	50.41
687.63	-30.25
687.95	120.99
688.28	-17.64
688.61	12.60
688.94	78.14
689.27	65.54
689.59	45.37
689.92	113.43
690.25	259.62
690.58	10.08
690.90	57.97
691.23	30.25
691.56	70.58
691.89	126.03
692.21	27.73
692.54	12.60
692.87	252.06
693.20	-20.16
693.52	-35.29
693.85	7.56
694.18	47.89
694.50	-12.60
694.83	55.45
695.16	115.95
695.49	-65.53
695.81	47.89
696.14	-25.21
696.47	-83.18
696.79	108.38
697.12	73.10
697.45	-2.52
697.77	55.45
698.10	32.77
698.43	171.40
698.75	27.73
699.08	60.49
699.41	68.06
699.73	20.16
700.06	-57.97
700.39	30.25
700.71	7.56
701.04	-40.33
701.36	2.52
701.69	-17.64
702.02	-42.85
702.34	83.18
702.67	115.95
702.99	-108.38
703.32	42.85
703.65	78.14
703.97	-47.89
704.30	95.78
704.62	-70.58
704.95	-70.58
705.27	12.60
705.60	-17.64
705.93	32.77
706.25	57.97
706.58	15.12
706.90	57.97
707.23	-27.73
707.55	-32.77
707.88	35.29
708.20	-7.56
708.53	22.69
708.85	-52.93
709.18	110.91
709.50	22.69
709.83	17.64
710.15	7.56
710.48	-73.10
710.80	65.54
711.13	-108.38
711.45	-22.69
711.78	151.23
712.10	-57.97
712.43	108.38
712.75	50.41
713.07	2.52
713.40	78.14
713.72	-5.04
714.05	-45.37
714.37	-37.81
714.70	100.82
715.02	37.81
715.34	25.21
715.67	-5.04
715.99	-73.10
716.32	-5.04
716.64	-55.45
716.96	120.99
717.29	78.14
717.61	40.33
717.94	7.56
718.26	2.52
718.58	83.18
718.91	-15.12
719.23	-10.08
719.55	55.45
719.88	-70.58
720.20	12.60
720.53	113.43
720.85	73.10
721.17	25.21
721.50	32.77
721.82	-25.21
722.14	-20.16
722.46	-10.08
722.79	17.64
723.11	7.56
723.43	-88.22
723.76	85.70
724.08	98.30
724.40	83.18
724.73	5.04
725.05	103.34
725.37	78.14
725.69	-15.12
726.02	-73.10
726.34	-5.04
726.66	25.21
726.98	42.85
727.31	42.85
727.63	27.73
727.95	-108.38
728.27	-20.16
728.60	-17.64
728.92	-30.25
729.24	-50.41
729.56	57.97
729.88	-20.16
730.21	0.00
730.53	-63.01
730.85	-5.04
731.17	-166.36
731.49	10.08
731.82	-55.45
732.14	-110.91
732.46	5.04
732.78	-7.56
733.10	-30.25
733.42	55.45
733.74	-45.37
734.07	90.74
734.39	90.74
734.71	-10.08
735.03	5.04
735.35	-50.41
735.67	-45.37
735.99	-22.69
736.32	-32.77
736.64	-80.66
736.96	10.08
737.28	-22.69
737.60	-85.70
737.92	-25.21
738.24	7.56
738.56	-70.58
738.88	-57.97
739.20	68.06
739.52	-15.12
739.84	47.89
740.16	73.10
740.49	20.16
740.81	17.64
741.13	50.41
741.45	-27.73
741.77	17.64
742.09	-5.04
742.41	141.15
742.73	0.00
743.05	50.41
743.37	-90.74
743.69	17.64
744.01	65.54
744.33	10.08
744.65	-37.81
744.97	25.21
745.29	47.89
745.61	5.04
745.93	7.56
746.25	-78.14
746.57	-25.21
746.89	-10.08
747.20	83.18
747.52	37.81
747.84	12.60
748.16	22.69
748.48	57.97
748.80	-78.14
749.12	27.73
749.44	32.77
749.76	118.47
750.08	47.89
750.40	27.73
750.72	-22.69
751.03	-32.77
751.35	5.04
751.67	17.64
751.99	37.81
752.31	108.38
752.63	2.52
752.95	52.93
753.27	-35.29
753.58	17.64
753.90	40.33
754.22	-35.29
754.54	-30.25
754.86	-55.45
755.18	5.04
755.49	-75.62
755.81	126.03
756.13	-25.21
756.45	0.00
756.77	65.54
757.09	17.64
757.40	15.12
757.72	2.52
758.04	42.85
758.36	20.16
758.67	57.97
758.99	7.56
759.31	-98.30
759.63	-151.23
759.95	-20.16
760.26	118.47
760.58	-2.52
760.90	133.59
761.22	-45.37
761.53	12.60
761.85	-35.29
762.17	70.58
762.48	22.69
762.80	52.93
763.12	-98.30
763.44	10.08
763.75	47.89
764.07	-22.69
764.39	-10.08
764.70	20.16
765.02	-73.10
765.34	-25.21
765.65	-55.45
765.97	-110.91
766.29	-20.16
766.60	-7.56
766.92	25.21
767.24	75.62
767.55	30.25
767.87	50.41
768.19	15.12
768.50	47.89
768.82	55.45
769.13	-70.58
769.45	10.08
769.77	-32.77
770.08	65.54
770.40	-37.81
770.71	-15.12
771.03	17.64
771.35	-15.12
771.66	-55.45
771.98	17.64
772.29	45.37
772.61	93.26
772.92	-25.21
773.24	-2.52
773.56	47.89
773.87	-32.77
774.19	-22.69
774.50	17.64
774.82	93.26
775.13	5.04
775.45	-90.74
775.76	-80.66
776.08	22.69
776.39	-15.12
776.71	45.37
777.02	42.85
777.34	0.00
777.65	40.33
777.97	-55.45
778.28	-30.25
778.60	-35.29
778.91	12.60
779.23	-90.74
779.54	25.21
779.86	-2.52
780.17	-25.21
780.48	-57.97
780.80	30.25
781.11	-5.04
781.43	10.08
781.74	-12.60
782.06	103.34
782.37	-40.33
782.68	156.28
783.00	15.12
783.31	47.89
783.63	-37.81
783.94	7.56
784.25	153.76
784.57	-52.93
784.88	-2.52
785.20	50.41
785.51	-32.77
785.82	-37.81
786.14	-22.69
786.45	-7.56
786.76	-47.89
787.08	-47.89
787.39	10.08
787.70	-10.08
788.02	65.54
788.33	-68.06
788.64	-10.08
788.96	42.85
789.27	-70.58
789.58	45.37
789.90	35.29
790.21	30.25
790.52	15.12
790.83	35.29
791.15	30.25
791.46	-95.78
791.77	2.52
792.08	57.97
792.40	45.37
792.71	10.08
793.02	70.58
793.33	-5.04
793.65	-63.01
793.96	78.14
794.27	35.29
794.58	25.21
794.90	35.29
795.21	2.52
795.52	126.03
795.83	-15.12
796.14	20.16
796.46	-12.60
796.77	35.29
797.08	40.33
797.39	10.08
797.70	37.81
798.02	17.64
798.33	-5.04
798.64	-2.52
798.95	15.12
799.26	-30.25
799.57	-2.52
799.88	-2.52
800.20	47.89
800.51	-65.53
800.82	-5.04
801.13	78.14
801.44	32.77
801.75	-22.69
802.06	27.73
802.37	88.22
802.68	12.60
803.00	32.77
803.31	42.85
803.62	32.77
803.93	78.14
804.24	22.69
804.55	-42.85
804.86	25.21
805.17	50.41
805.48	-27.73
805.79	100.82
806.10	27.73
806.41	55.45
806.72	100.82
807.03	-32.77
807.34	113.43
807.65	-20.16
807.96	-7.56
808.27	-78.14
808.58	40.33
808.89	-10.08
809.20	-100.82
809.51	37.81
809.82	143.67
810.13	-32.77
810.44	10.08
810.75	20.16
811.06	-12.60
811.37	12.60
811.68	-12.60
811.99	12.60
812.30	27.73
812.61	-83.18
812.92	-78.14
813.23	-52.93
813.54	-10.08
813.85	60.49
814.16	83.18
814.46	10.08
814.77	-90.74
815.08	2.52
815.39	2.52
815.70	27.73
816.01	5.04
816.32	-17.64
816.63	27.73
816.94	57.97
817.24	-98.30
817.55	32.77
817.86	-108.38
818.17	-103.34
818.48	68.06
818.79	10.08
819.09	83.18
819.40	-45.37
819.71	78.14
820.02	20.16
820.33	40.33
820.64	10.08
820.94	32.77
821.25	-30.25
821.56	73.10
821.87	50.41
822.18	30.25
822.48	-90.74
822.79	37.81
823.10	-20.16
823.41	-80.66
823.71	-50.41
824.02	55.45
824.33	-95.78
824.64	-2.52
824.94	-12.60
825.25	-20.16
825.56	30.25
825.87	-52.93
826.17	0.00
826.48	83.18
826.79	40.33
827.09	15.12
827.40	-73.10
827.71	57.97
828.01	-30.25
828.32	15.12
828.63	25.21
828.93	17.64
829.24	-95.78
829.55	-50.41
829.85	32.77
830.16	-95.78
830.47	80.66
830.77	108.38
831.08	-15.12
831.39	-37.81
831.69	52.93
832.00	32.77
832.31	-68.06
832.61	63.01
832.92	17.64
833.22	10.08
833.53	-42.85
833.84	-12.60
834.14	55.45
834.45	108.38
834.75	47.89
835.06	27.73
835.36	68.06
835.67	15.12
835.98	-45.37
836.28	100.82
836.59	80.66
836.89	75.62
837.20	70.58
837.50	57.97
837.81	15.12
838.11	-65.53
838.42	0.00
838.72	-68.06
839.03	17.64
839.33	-22.69
839.64	27.73
839.94	70.58
840.25	-20.16
840.55	-115.95
840.86	-78.14
841.16	-131.07
841.47	-2.52
841.77	-42.85
842.08	42.85
842.38	-68.06
842.69	-17.64
842.99	37.81
843.29	47.89
843.60	70.58
843.90	-110.91
844.21	20.16
844.51	12.60
844.81	17.64
845.12	-25.21
845.42	-12.60
845.73	136.11
846.03	0.00
846.33	-7.56
846.64	52.93
846.94	2.52
847.25	-40.33
847.55	57.97
847.85	-47.89
848.16	-83.18
848.46	20.16
848.76	2.52
849.07	15.12
849.37	-55.45
849.67	85.70
849.98	35.29
850.28	-12.60
850.58	-93.26
850.89	-27.73
851.19	115.95
851.49	95.78
851.80	-17.64
852.10	-138.63
852.40	-2.52
852.70	78.14
853.01	20.16
853.31	7.56
853.61	57.97
853.91	0.00
854.22	88.22
854.52	-52.93
854.82	0.00
855.12	100.82
855.43	-30.25
855.73	-35.29
856.03	-80.66
856.33	0.00
856.63	5.04
856.94	-37.81
857.24	27.73
857.54	-47.89
857.84	55.45
858.14	-83.18
858.45	-100.82
858.75	-20.16
859.05	57.97
859.35	-25.21
859.65	45.37
859.95	-20.16
860.26	60.49
860.56	-10.08
860.86	-17.64
861.16	-5.04
861.46	55.45
861.76	2.52
862.06	98.30
862.37	57.97
862.67	-78.14
862.97	15.12
863.27	103.34
863.57	-73.10
863.87	63.01
864.17	-27.73
864.47	50.41
864.77	-10.08
865.07	-37.81
865.37	-2.52
865.67	-2.52
865.97	-37.81
866.28	-7.56
866.58	50.41
866.88	-27.73
867.18	12.60
867.48	42.85
867.78	78.14
868.08	35.29
868.38	-32.77
868.68	-17.64
868.98	-5.04
869.28	65.53
869.58	-2.52
869.88	32.77
870.18	47.89
870.48	50.41
870.78	-32.77
871.08	68.06
871.38	7.56
871.67	-20.16
871.97	-20.16
872.27	37.81
872.57	-75.62
872.87	-5.04
873.17	-30.25
873.47	73.10
873.77	-2.52
874.07	17.64
874.37	15.12
874.67	-5.04
874.97	-12.60
875.27	-10.08
875.56	-70.58
875.86	-17.64
876.16	32.77
876.46	-35.29
876.76	-2.52
877.06	40.33
877.36	-2.52
877.65	-35.29
877.95	-42.85
878.25	15.12
878.55	55.45
878.85	50.41
879.15	98.30
879.44	85.70
879.74	-70.58
880.04	-25.21
880.34	5.04
880.64	-2.52
880.94	35.29
881.23	143.67
881.53	42.85
881.83	-108.38
882.13	128.55
882.42	-63.01
882.72	-100.82
883.02	156.28
883.32	60.49
883.61	105.86
883.91	7.56
884.21	2.52
884.51	70.58
884.80	30.25
885.10	-73.10
885.40	-63.01
885.69	-45.37
885.99	-5.04
886.29	65.54
886.59	-27.73
886.88	-90.74
887.18	45.37
887.48	-60.49
887.77	-75.62
888.07	32.77
888.37	0.00
888.66	-30.25
888.96	-17.64
889.26	-60.49
889.55	57.97
889.85	7.56
890.15	45.37
890.44	2.52
890.74	22.69
891.03	47.89
891.33	47.89
891.63	47.89
>>>>>End Processed Spectral Data<<<<<
